PE UV                   SPECTRUM    ASCII       PEDS        1.60        
  -1
PYRSIL.SP
17/02/09
11:01:43.00
17/02/09
11:10:32.00


300.000000
1









4444

SCAN
1
1


0.0

5.00
MANUAL



UV/VIS




































#HDR
-1
-1
#GR
NM
%R
0.00002384185791015625
0.0
2000.000000
5.000000
341
8
28.947879
10.555727
#DATA
2000.000000	23.385259 
1995.000000	23.573103 
1990.000000	23.657378 
1985.000000	23.435669 
1980.000000	23.472005 
1975.000000	23.410836 
1970.000000	23.580727 
1965.000000	23.668372 
1960.000000	23.654790 
1955.000000	23.577468 
1950.000000	23.690402 
1945.000000	23.802680 
1940.000000	23.770611 
1935.000000	23.798831 
1930.000000	23.848057 
1925.000000	23.869109 
1920.000000	23.792569 
1915.000000	23.874758 
1910.000000	23.885622 
1905.000000	23.950191 
1900.000000	24.030979 
1895.000000	23.886180 
1890.000000	23.976867 
1885.000000	24.080184 
1880.000000	23.996310 
1875.000000	24.001278 
1870.000000	24.074832 
1865.000000	24.070541 
1860.000000	24.115544 
1855.000000	24.152324 
1850.000000	24.213253 
1845.000000	24.187085 
1840.000000	24.216058 
1835.000000	24.351477 
1830.000000	24.249064 
1825.000000	24.302689 
1820.000000	24.286962 
1815.000000	24.346567 
1810.000000	24.368380 
1805.000000	24.324374 
1800.000000	24.369343 
1795.000000	24.501982 
1790.000000	24.473599 
1785.000000	24.462433 
1780.000000	24.587632 
1775.000000	24.602458 
1770.000000	24.669079 
1765.000000	24.650536 
1760.000000	24.637640 
1755.000000	24.753822 
1750.000000	24.686430 
1745.000000	24.854291 
1740.000000	24.722793 
1735.000000	24.824447 
1730.000000	24.818878 
1725.000000	24.935212 
1720.000000	24.881195 
1715.000000	24.909919 
1710.000000	24.989482 
1705.000000	24.988656 
1700.000000	24.937261 
1695.000000	25.081410 
1690.000000	25.078703 
1685.000000	25.073392 
1680.000000	25.141445 
1675.000000	25.188299 
1670.000000	25.297323 
1665.000000	25.172994 
1660.000000	25.296830 
1655.000000	25.322653 
1650.000000	25.234800 
1645.000000	25.405716 
1640.000000	25.472322 
1635.000000	25.359709 
1630.000000	25.490593 
1625.000000	25.532949 
1620.000000	25.566769 
1615.000000	25.571577 
1610.000000	25.590132 
1605.000000	25.665700 
1600.000000	25.737810 
1595.000000	25.738590 
1590.000000	25.761093 
1585.000000	25.792267 
1580.000000	25.946280 
1575.000000	25.860350 
1570.000000	25.922438 
1565.000000	25.952263 
1560.000000	25.989737 
1555.000000	26.061986 
1550.000000	26.106407 
1545.000000	26.146499 
1540.000000	26.155652 
1535.000000	26.208082 
1530.000000	26.241253 
1525.000000	26.277154 
1520.000000	26.369756 
1515.000000	26.349732 
1510.000000	26.413633 
1505.000000	26.401032 
1500.000000	26.505207 
1495.000000	26.576084 
1490.000000	26.617846 
1485.000000	26.627615 
1480.000000	26.665187 
1475.000000	26.724801 
1470.000000	26.795704 
1465.000000	26.862727 
1460.000000	26.893562 
1455.000000	26.894483 
1450.000000	26.994316 
1445.000000	27.037621 
1440.000000	27.081577 
1435.000000	27.121702 
1430.000000	27.138840 
1425.000000	27.224196 
1420.000000	27.224013 
1415.000000	27.388215 
1410.000000	27.478544 
1405.000000	27.463629 
1400.000000	27.473292 
1395.000000	27.540277 
1390.000000	27.626510 
1385.000000	27.662472 
1380.000000	27.664827 
1375.000000	27.806876 
1370.000000	27.797121 
1365.000000	27.799418 
1360.000000	27.939891 
1355.000000	27.970292 
1350.000000	28.056055 
1345.000000	28.050584 
1340.000000	28.103746 
1335.000000	28.083638 
1330.000000	28.262916 
1325.000000	28.337198 
1320.000000	28.388044 
1315.000000	28.355704 
1310.000000	28.445694 
1305.000000	28.440015 
1300.000000	28.569393 
1295.000000	28.647201 
1290.000000	28.612694 
1285.000000	28.744019 
1280.000000	28.664150 
1275.000000	28.668155 
1270.000000	28.845897 
1265.000000	28.858536 
1260.000000	28.800511 
1255.000000	28.920644 
1250.000000	28.901150 
1245.000000	28.935604 
1240.000000	28.855399 
1235.000000	28.947879 
1230.000000	28.889352 
1225.000000	28.729901 
1220.000000	28.236889 
1215.000000	27.560124 
1210.000000	26.939264 
1205.000000	26.437053 
1200.000000	25.543199 
1195.000000	24.693955 
1190.000000	24.115225 
1185.000000	23.207778 
1180.000000	22.608915 
1175.000000	21.722041 
1170.000000	20.894292 
1165.000000	20.224216 
1160.000000	19.472975 
1155.000000	18.759950 
1150.000000	18.146609 
1145.000000	17.602606 
1140.000000	16.918999 
1135.000000	16.379775 
1130.000000	15.829004 
1125.000000	15.335556 
1120.000000	14.730935 
1115.000000	14.406616 
1110.000000	14.043807 
1105.000000	13.409087 
1100.000000	13.048970 
1095.000000	12.732327 
1090.000000	12.387132 
1085.000000	12.212132 
1080.000000	12.036148 
1075.000000	11.713026 
1070.000000	11.724921 
1065.000000	11.609701 
1060.000000	11.484389 
1055.000000	11.545352 
1050.000000	11.380732 
1045.000000	11.441881 
1040.000000	11.380996 
1035.000000	11.407829 
1030.000000	11.355233 
1025.000000	11.307476 
1020.000000	11.358509 
1015.000000	11.320174 
1010.000000	11.312548 
1005.000000	11.408847 
1000.000000	11.180027 
995.000000	 11.270311 
990.000000	 11.383175 
985.000000	 11.346594 
980.000000	 11.188313 
975.000000	 11.311114 
970.000000	 11.389430 
965.000000	 11.492410 
960.000000	 11.314218 
955.000000	 11.332962 
950.000000	 11.193134 
945.000000	 11.423374 
940.000000	 11.385549 
935.000000	 11.113747 
930.000000	 11.244643 
925.000000	 11.201614 
920.000000	 11.133780 
915.000000	 11.343536 
910.000000	 11.161971 
905.000000	 11.320711 
900.000000	 11.434816 
895.000000	 11.026058 
890.000000	 10.604027 
885.000000	 11.898556 
880.000000	 10.709715 
875.000000	 10.555727 
870.000000	 11.378184 
865.000000	 11.444719 
860.000000	 11.082444 
855.000000	 11.235801 
850.000000	 11.199928 
845.000000	 11.227321 
840.000000	 11.212452 
835.000000	 11.188741 
830.000000	 11.205037 
825.000000	 11.187244 
820.000000	 11.161096 
815.000000	 11.184146 
810.000000	 11.184054 
805.000000	 11.154452 
800.000000	 11.147904 
795.000000	 11.152968 
790.000000	 11.143997 
785.000000	 11.132297 
780.000000	 11.139283 
775.000000	 11.128621 
770.000000	 11.130036 
765.000000	 11.116176 
760.000000	 11.109041 
755.000000	 11.109942 
750.000000	 11.095906 
745.000000	 11.105034 
740.000000	 11.098408 
735.000000	 11.081736 
730.000000	 11.091735 
725.000000	 11.088828 
720.000000	 11.057922 
715.000000	 11.063392 
710.000000	 11.060486 
705.000000	 11.056559 
700.000000	 11.058022 
695.000000	 11.035224 
690.000000	 11.025749 
685.000000	 11.019878 
680.000000	 11.022991 
675.000000	 11.010685 
670.000000	 11.001329 
665.000000	 11.007162 
660.000000	 10.993307 
655.000000	 10.986569 
650.000000	 11.001408 
645.000000	 10.979540 
640.000000	 10.971501 
635.000000	 10.973187 
630.000000	 10.970029 
625.000000	 10.966539 
620.000000	 10.956391 
615.000000	 10.964768 
610.000000	 10.954856 
605.000000	 10.959676 
600.000000	 10.944950 
595.000000	 10.953258 
590.000000	 10.950089 
585.000000	 10.954560 
580.000000	 10.954112 
575.000000	 10.954922 
570.000000	 10.954211 
565.000000	 10.970928 
560.000000	 10.961463 
555.000000	 10.974332 
550.000000	 10.976248 
545.000000	 10.987721 
540.000000	 10.988840 
535.000000	 11.007971 
530.000000	 11.027164 
525.000000	 11.035163 
520.000000	 11.062491 
515.000000	 11.087306 
510.000000	 11.106267 
505.000000	 11.127874 
500.000000	 11.157307 
495.000000	 11.187031 
490.000000	 11.219313 
485.000000	 11.266887 
480.000000	 11.309829 
475.000000	 11.359181 
470.000000	 11.423238 
465.000000	 11.486940 
460.000000	 11.564192 
455.000000	 11.638893 
450.000000	 11.723568 
445.000000	 11.834925 
440.000000	 11.957531 
435.000000	 12.103304 
430.000000	 12.266043 
425.000000	 12.459186 
420.000000	 12.665192 
415.000000	 12.882053 
410.000000	 13.167465 
405.000000	 13.528185 
400.000000	 13.908047 
395.000000	 14.398687 
390.000000	 14.947204 
385.000000	 15.378826 
380.000000	 15.680679 
375.000000	 15.697983 
370.000000	 15.506655 
365.000000	 15.261656 
360.000000	 15.066332 
355.000000	 14.881716 
350.000000	 14.705220 
345.000000	 14.387941 
340.000000	 13.867449 
335.000000	 13.417802 
330.000000	 13.421003 
325.000000	 13.734638 
320.000000	 14.176905 
315.000000	 14.944950 
310.000000	 16.087634 
305.000000	 17.491823 
300.000000	 18.858111 

